# RRKM rate for corannulene isomer 
En(eV)     K(E) s-1
1.624182  1.168792e-06
1.636580  3.825455e-06
1.648978  7.831310e-06
1.661377  1.604379e-05
1.673775  3.105060e-05
1.686173  5.571525e-05
1.698572  9.541466e-05
1.710970  1.577062e-04
1.723368  2.529300e-04
1.735767  3.954060e-04
1.748165  6.036757e-04
1.760563  9.028839e-04
1.772962  1.327076e-03
1.785360  1.919922e-03
1.797758  2.736821e-03
1.810157  3.849879e-03
1.822555  5.351087e-03
1.834953  7.355522e-03
1.847352  1.000692e-02
1.859750  1.348423e-02
1.872148  1.800928e-02
1.884547  2.385407e-02
1.896945  3.135008e-02
1.909343  4.090052e-02
1.921742  5.299379e-02
1.934140  6.821686e-02
1.946538  8.727312e-02
1.958937  1.110007e-01
1.971335  1.403972e-01
1.983733  1.766436e-01
1.996132  2.211310e-01
2.008530  2.754948e-01
2.020928  3.416510e-01
2.033327  4.218351e-01
2.045725  5.186544e-01
2.058123  6.351221e-01
2.070522  7.747373e-01
2.082920  9.415255e-01
2.095318  1.140127e+00
2.107717  1.375873e+00
2.120115  1.654849e+00
2.132513  1.984008e+00
2.144912  2.371296e+00
2.157310  2.825715e+00
2.169708  3.357509e+00
2.182107  3.978202e+00
2.194505  4.700965e+00
2.206903  5.540445e+00
2.219302  6.513272e+00
2.231700  7.638082e+00
2.244098  8.935735e+00
2.256497  1.042961e+01
2.268895  1.214592e+01
2.281293  1.411359e+01
2.293692  1.636520e+01
2.306090  1.893677e+01
2.318488  2.186827e+01
2.330887  2.520410e+01
2.343285  2.899323e+01
2.355683  3.329010e+01
2.368082  3.815468e+01
2.380480  4.365271e+01
2.392878  4.985675e+01
2.405277  5.684667e+01
2.417675  6.471031e+01
2.430073  7.354360e+01
2.442472  8.345171e+01
2.454870  9.455054e+01
2.467268  1.069643e+02
2.479667  1.208319e+02
2.492065  1.363024e+02
2.504463  1.535383e+02
2.516862  1.727170e+02
2.529260  1.940325e+02
2.541658  2.176919e+02
2.554057  2.439238e+02
2.566455  2.729720e+02
2.578853  3.051049e+02
2.591252  3.406099e+02
2.603650  3.797967e+02
2.616048  4.230018e+02
2.628447  4.705863e+02
2.640845  5.229417e+02
2.653243  5.804849e+02
2.665642  6.436730e+02
2.678040  7.129882e+02
2.690438  7.889546e+02
2.702837  8.721250e+02
2.715235  9.631108e+02
2.727633  1.062553e+03
2.740032  1.171135e+03
2.752430  1.289595e+03
2.764828  1.418723e+03
2.777227  1.559361e+03
2.789625  1.712411e+03
2.802023  1.878841e+03
2.814422  2.059654e+03
2.826820  2.255962e+03
2.839218  2.468910e+03
2.851617  2.699742e+03
2.864015  2.949772e+03
2.876413  3.220399e+03
2.888812  3.513094e+03
2.901210  3.829452e+03
2.913608  4.171157e+03
2.926007  4.539976e+03
2.938405  4.937747e+03
2.950803  5.366516e+03
2.963202  5.828336e+03
2.975600  6.325500e+03
2.987998  6.860341e+03
3.000397  7.435335e+03
3.012795  8.053117e+03
3.025193  8.716528e+03
3.037592  9.428379e+03
3.049990  1.019191e+04
3.062388  1.101030e+04
3.074787  1.188702e+04
3.087185  1.282560e+04
3.099583  1.383010e+04
3.111982  1.490422e+04
3.124380  1.605242e+04
3.136778  1.727910e+04
3.149177  1.858883e+04
3.161575  1.998643e+04
3.173973  2.147739e+04
3.186372  2.306679e+04
3.198770  2.476039e+04
3.211168  2.656425e+04
3.223567  2.848444e+04
3.235965  3.052757e+04
3.248363  3.270045e+04
3.260762  3.501030e+04
3.273160  3.746444e+04
3.285558  4.007123e+04
3.297957  4.283765e+04
3.310355  4.577394e+04
3.322753  4.888787e+04
3.335152  5.218929e+04
3.347550  5.568762e+04
3.359948  5.939356e+04
3.372347  6.331731e+04
3.384745  6.747018e+04
3.397143  7.186361e+04
3.409542  7.650994e+04
3.421940  8.142152e+04
3.434338  8.661146e+04
3.446737  9.209404e+04
3.459135  9.788252e+04
3.471533  1.039921e+05
3.483932  1.104387e+05
3.496330  1.172372e+05
3.508728  1.244058e+05
3.521127  1.319602e+05
3.533525  1.399195e+05
3.545923  1.483016e+05
3.558322  1.571270e+05
3.570720  1.664146e+05
3.583118  1.761871e+05
3.595517  1.864641e+05
3.607915  1.972697e+05
3.620313  2.086275e+05
3.632712  2.205598e+05
3.645110  2.330935e+05
3.657508  2.462545e+05
3.669907  2.600686e+05
3.682305  2.745652e+05
3.694703  2.897723e+05
3.707102  3.057205e+05
3.719500  3.224391e+05
3.731898  3.399640e+05
3.744297  3.583243e+05
3.756695  3.775594e+05
3.769093  3.976988e+05
3.781492  4.187808e+05
3.793890  4.408467e+05
3.806288  4.639327e+05
3.818687  4.880818e+05
3.831085  5.133329e+05
3.843483  5.397306e+05
3.855882  5.673210e+05
3.868280  5.961463e+05
3.880678  6.262586e+05
3.893077  6.577013e+05
3.905475  6.905319e+05
3.917873  7.247990e+05
3.930272  7.605572e+05
3.942670  7.978588e+05
3.955068  8.367643e+05
3.967467  8.773335e+05
3.979865  9.196234e+05
3.992263  9.637026e+05
4.004662  1.009624e+06
4.017060  1.057465e+06
4.029458  1.107289e+06
4.041857  1.159168e+06
4.054255  1.213175e+06
4.066653  1.269378e+06
4.079052  1.327863e+06
4.091450  1.388701e+06
4.103848  1.451970e+06
4.116247  1.517770e+06
4.128645  1.586167e+06
4.141043  1.657258e+06
4.153442  1.731131e+06
4.165840  1.807881e+06
4.178238  1.887604e+06
4.190637  1.970397e+06
4.203035  2.056354e+06
4.215433  2.145574e+06
4.227832  2.238200e+06
4.240230  2.334290e+06
4.252628  2.433981e+06
4.265027  2.537386e+06
4.277425  2.644623e+06
4.289823  2.755802e+06
4.302222  2.871063e+06
4.314620  2.990512e+06
4.327018  3.114301e+06
4.339417  3.242548e+06
4.351815  3.375391e+06
4.364213  3.512978e+06
4.376612  3.655440e+06
4.389010  3.802944e+06
4.401408  3.955595e+06
4.413807  4.113575e+06
4.426205  4.277075e+06
4.438603  4.446197e+06
4.451002  4.621156e+06
4.463400  4.802076e+06
4.475798  4.989168e+06
4.488197  5.182604e+06
4.500595  5.382528e+06
4.512993  5.589155e+06
4.525392  5.802665e+06
4.537790  6.023257e+06
4.550188  6.251120e+06
4.562587  6.486472e+06
4.574985  6.729533e+06
4.587383  6.980419e+06
4.599782  7.239516e+06
4.612180  7.506903e+06
4.624578  7.782830e+06
4.636977  8.067555e+06
4.649375  8.361311e+06
4.661773  8.664352e+06
4.674172  8.976854e+06
4.686570  9.299210e+06
4.698968  9.631509e+06
4.711367  9.974090e+06
4.723765  1.032726e+07
4.736163  1.069123e+07
4.748562  1.106628e+07
4.760960  1.145270e+07
4.773358  1.185082e+07
4.785757  1.226093e+07
4.798155  1.268322e+07
4.810553  1.311811e+07
4.822952  1.356590e+07
4.835350  1.402687e+07
4.847748  1.450141e+07
4.860147  1.498980e+07
4.872545  1.549237e+07
4.884943  1.600952e+07
4.897342  1.654156e+07
4.909740  1.708882e+07
4.922138  1.765177e+07
4.934537  1.823065e+07
4.946935  1.882582e+07
4.959333  1.943788e+07
4.971732  2.006687e+07
4.984130  2.071371e+07
4.996528  2.137835e+07
5.008927  2.206136e+07
5.021325  2.276324e+07
5.033723  2.348424e+07
5.046122  2.422498e+07
5.058520  2.498579e+07
5.070918  2.576716e+07
5.083317  2.656951e+07
5.095715  2.739343e+07
5.108113  2.823923e+07
5.120512  2.910758e+07
5.132910  2.999885e+07
5.145308  3.091361e+07
5.157707  3.185222e+07
5.170105  3.281541e+07
5.182503  3.380367e+07
5.194902  3.481743e+07
5.207300  3.585703e+07
5.219698  3.692370e+07
5.232097  3.801754e+07
5.244495  3.913887e+07
5.256893  4.028888e+07
5.269292  4.146763e+07
5.281690  4.267601e+07
5.294088  4.391476e+07
5.306487  4.518432e+07
5.318885  4.648507e+07
5.331283  4.781812e+07
5.343682  4.918385e+07
5.356080  5.058307e+07
5.368478  5.201624e+07
5.380877  5.348432e+07
5.393275  5.498768e+07
5.405673  5.652716e+07
5.418072  5.810401e+07
5.430470  5.971784e+07
5.442868  6.137053e+07
5.455267  6.306195e+07
5.467665  6.479337e+07
5.480063  6.656565e+07
5.492462  6.837908e+07
5.504860  7.023496e+07
5.517258  7.213343e+07
5.529657  7.407572e+07
5.542055  7.606312e+07
5.554453  7.809594e+07
5.566852  8.017486e+07
5.579250  8.230105e+07
5.591648  8.447540e+07
5.604047  8.669885e+07
5.616445  8.897265e+07
5.628843  9.129664e+07
5.641242  9.367254e+07
5.653640  9.610079e+07
5.666038  9.858331e+07
5.678437  1.011200e+08
5.690835  1.037122e+08
5.703233  1.063617e+08
5.715632  1.090683e+08
5.728030  1.118333e+08
5.740428  1.146584e+08
5.752827  1.175447e+08
5.765225  1.204912e+08
5.777623  1.235021e+08
5.790022  1.265766e+08
5.802420  1.297158e+08
5.814818  1.329212e+08
5.827217  1.361935e+08
5.839615  1.395348e+08
5.852013  1.429458e+08
5.864412  1.464275e+08
5.876810  1.499819e+08
5.889208  1.536087e+08
5.901607  1.573101e+08
5.914005  1.610873e+08
5.926403  1.649411e+08
5.938802  1.688734e+08
5.951200  1.728850e+08
5.963598  1.769776e+08
5.975997  1.811522e+08
5.988395  1.854104e+08
6.000793  1.897536e+08
6.013192  1.941830e+08
6.025590  1.986995e+08
6.037988  2.033054e+08
6.050387  2.080024e+08
6.062785  2.127888e+08
6.075183  2.176709e+08
6.087582  2.226468e+08
6.099980  2.277185e+08
6.112378  2.328882e+08
6.124777  2.381567e+08
6.137175  2.435278e+08
6.149573  2.490002e+08
6.161972  2.545757e+08
6.174370  2.602575e+08
6.186768  2.660470e+08
6.199167  2.719449e+08
6.211565  2.779526e+08
6.223963  2.840726e+08
6.236362  2.903074e+08
6.248760  2.966562e+08
6.261159  3.031229e+08
6.273557  3.097080e+08
6.285955  3.164139e+08
6.298354  3.232423e+08
6.310752  3.301957e+08
6.323150  3.372743e+08
6.335549  3.444797e+08
6.347947  3.518175e+08
6.360345  3.592873e+08
6.372744  3.668857e+08
6.385142  3.746236e+08
6.397540  3.824993e+08
6.409939  3.905100e+08
6.422337  3.986667e+08
6.434735  4.069641e+08
6.447134  4.154078e+08
6.459532  4.239976e+08
6.471930  4.327383e+08
6.484329  4.416302e+08
6.496727  4.506749e+08
6.509125  4.598766e+08
6.521524  4.692358e+08
6.533922  4.787536e+08
6.546320  4.884335e+08
6.558719  4.982793e+08
6.571117  5.082911e+08
6.583515  5.184715e+08
6.595914  5.288224e+08
6.608312  5.393488e+08
6.620710  5.500499e+08
6.633109  5.609280e+08
6.645507  5.719859e+08
6.657905  5.832279e+08
6.670304  5.946562e+08
6.682702  6.062703e+08
6.695100  6.180762e+08
6.707499  6.300711e+08
6.719897  6.422607e+08
6.732295  6.546496e+08
6.744694  6.672427e+08
6.757092  6.800329e+08
6.769490  6.930294e+08
6.781889  7.062353e+08
6.794287  7.196514e+08
6.806685  7.332798e+08
6.819084  7.471245e+08
6.831482  7.611857e+08
6.843880  7.754715e+08
6.856279  7.899761e+08
6.868677  8.047110e+08
6.881075  8.196802e+08
6.893474  8.348752e+08
6.905872  8.503040e+08
6.918270  8.659747e+08
6.930669  8.818859e+08
6.943067  8.980416e+08
6.955465  9.144397e+08
6.967864  9.310947e+08
6.980262  9.479966e+08
6.992660  9.651562e+08
7.005059  9.825721e+08
7.017457  1.000257e+09
7.029855  1.018201e+09
7.042254  1.036418e+09
7.054652  1.054898e+09
7.067050  1.073660e+09
7.079449  1.092693e+09
7.091847  1.112017e+09
7.104245  1.131616e+09
7.116644  1.151505e+09
7.129042  1.171687e+09
7.141440  1.192159e+09
7.153839  1.212934e+09
7.166237  1.234003e+09
7.178635  1.255383e+09
7.191034  1.277062e+09
7.203432  1.299063e+09
7.215830  1.321373e+09
7.228229  1.344002e+09
7.240627  1.366950e+09
7.253025  1.390225e+09
7.265424  1.413828e+09
7.277822  1.437764e+09
7.290220  1.462040e+09
7.302619  1.486649e+09
7.315017  1.511604e+09
7.327415  1.536911e+09
7.339814  1.562557e+09
7.352212  1.588573e+09
7.364610  1.614936e+09
7.377009  1.641666e+09
7.389407  1.668767e+09
7.401805  1.696237e+09
7.414204  1.724084e+09
7.426602  1.752297e+09
7.439000  1.780893e+09
7.451399  1.809881e+09
7.463797  1.839259e+09
7.476195  1.869027e+09
7.488594  1.899196e+09
7.500992  1.929769e+09
7.513390  1.960746e+09
7.525789  1.992141e+09
7.538187  2.023943e+09
7.550585  2.056173e+09
7.562984  2.088818e+09
7.575382  2.121894e+09
7.587780  2.155405e+09
7.600179  2.189348e+09
7.612577  2.223732e+09
7.624975  2.258567e+09
7.637374  2.293847e+09
7.649772  2.329582e+09
7.662170  2.365778e+09
7.674569  2.402440e+09
7.686967  2.439565e+09
7.699365  2.477168e+09
7.711764  2.515246e+09
7.724162  2.553793e+09
7.736560  2.592835e+09
7.748959  2.632383e+09
7.761357  2.672401e+09
7.773755  2.712945e+09
7.786154  2.753975e+09
7.798552  2.795525e+09
7.810950  2.837589e+09
7.823349  2.880173e+09
7.835747  2.923285e+09
7.848145  2.966924e+09
7.860544  3.011101e+09
7.872942  3.055814e+09
7.885340  3.101076e+09
7.897739  3.146883e+09
7.910137  3.193251e+09
7.922535  3.240176e+09
7.934934  3.287669e+09
7.947332  3.335733e+09
7.959730  3.384375e+09
7.972129  3.433596e+09
7.984527  3.483405e+09
7.996925  3.533795e+09
8.009324  3.584798e+09
8.021722  3.636422e+09
8.034120  3.688627e+09
8.046519  3.741443e+09
8.058917  3.794878e+09
8.071315  3.848957e+09
8.083714  3.903647e+09
8.096112  3.958979e+09
8.108510  4.014970e+09
8.120909  4.071596e+09
8.133307  4.128857e+09
8.145705  4.186789e+09
8.158104  4.245398e+09
8.170502  4.304666e+09
8.182900  4.364609e+09
8.195299  4.425239e+09
8.207697  4.486557e+09
8.220095  4.548559e+09
8.232494  4.611271e+09
8.244892  4.674688e+09
8.257290  4.738814e+09
8.269689  4.803664e+09
8.282087  4.869229e+09
8.294485  4.935523e+09
8.306884  5.002582e+09
8.319282  5.070355e+09
8.331680  5.138857e+09
8.344079  5.208134e+09
8.356477  5.278187e+09
8.368875  5.349004e+09
8.381274  5.420581e+09
8.393672  5.492904e+09
8.406070  5.566059e+09
8.418469  5.640002e+09
8.430867  5.714763e+09
8.443265  5.790310e+09
8.455664  5.866661e+09
8.468062  5.943841e+09
8.480460  6.021822e+09
8.492859  6.100658e+09
8.505257  6.180352e+09
8.517655  6.260851e+09
8.530054  6.342232e+09
8.542452  6.424455e+09
8.554850  6.507550e+09
8.567249  6.591520e+09
8.579647  6.676351e+09
8.592045  6.762077e+09
8.604444  6.848717e+09
8.616842  6.936231e+09
8.629240  7.024656e+09
8.641639  7.114001e+09
8.654037  7.204288e+09
8.666435  7.295461e+09
8.678834  7.387615e+09
8.691232  7.480692e+09
8.703630  7.574688e+09
8.716029  7.669673e+09
8.728427  7.765635e+09
8.740825  7.862540e+09
8.753224  7.960440e+09
8.765622  8.059297e+09
8.778020  8.159213e+09
8.790419  8.260041e+09
8.802817  8.361959e+09
8.815215  8.464859e+09
8.827614  8.568744e+09
8.840012  8.673704e+09
8.852410  8.779700e+09
8.864809  8.886752e+09
8.877207  8.994825e+09
8.889605  9.103963e+09
8.902004  9.214205e+09
8.914402  9.325512e+09
8.926800  9.437894e+09
8.939199  9.551340e+09
8.951597  9.665920e+09
8.963995  9.781612e+09
8.976394  9.898440e+09
8.988792  1.001637e+10
9.001190  1.013544e+10
9.013589  1.025561e+10
9.025987  1.037695e+10
9.038385  1.049945e+10
9.050784  1.062311e+10
9.063182  1.074794e+10
9.075580  1.087393e+10
9.087979  1.100114e+10
9.100377  1.112959e+10
9.112775  1.125917e+10
9.125174  1.138999e+10
9.137572  1.152203e+10
9.149970  1.165531e+10
9.162369  1.178980e+10
9.174767  1.192560e+10
9.187165  1.206255e+10
9.199564  1.220084e+10
9.211962  1.234042e+10
9.224360  1.248131e+10
9.236759  1.262340e+10
9.249157  1.276681e+10
9.261555  1.291156e+10
9.273954  1.305758e+10
9.286352  1.320495e+10
9.298750  1.335373e+10
9.311149  1.350372e+10
9.323547  1.365510e+10
9.335945  1.380791e+10
9.348344  1.396197e+10
9.360742  1.411751e+10
9.373140  1.427434e+10
9.385539  1.443270e+10
9.397937  1.459234e+10
9.410335  1.475349e+10
9.422734  1.491602e+10
9.435132  1.507994e+10
9.447530  1.524534e+10
9.459929  1.541222e+10
9.472327  1.558055e+10
9.484725  1.575031e+10
9.497124  1.592155e+10
9.509522  1.609430e+10
9.521920  1.626856e+10
9.534319  1.644432e+10
9.546717  1.662157e+10
9.559115  1.680041e+10
9.571514  1.698068e+10
9.583912  1.716252e+10
9.596310  1.734593e+10
9.608709  1.753097e+10
9.621107  1.771755e+10
9.633505  1.790562e+10
9.645904  1.809543e+10
9.658302  1.828670e+10
9.670700  1.847960e+10
9.683099  1.867434e+10
9.695497  1.887049e+10
9.707895  1.906834e+10
9.720294  1.926785e+10
9.732692  1.946888e+10
9.745090  1.967176e+10
9.757489  1.987623e+10
9.769887  2.008247e+10
9.782285  2.029037e+10
9.794684  2.049995e+10
9.807082  2.071125e+10
9.819480  2.092429e+10
9.831879  2.113909e+10
9.844277  2.135569e+10
9.856675  2.157397e+10
9.869074  2.179405e+10
9.881472  2.201594e+10
9.893870  2.223960e+10
9.906269  2.246505e+10
9.918667  2.269231e+10
9.931065  2.292142e+10
9.943464  2.315235e+10
9.955862  2.338511e+10
9.968260  2.361978e+10
9.980659  2.385624e+10
9.993057  2.409458e+10
10.005455  2.433483e+10
10.017854  2.457696e+10
10.030252  2.482104e+10
10.042650  2.506706e+10
10.055049  2.531489e+10
10.067447  2.556485e+10
10.079845  2.581666e+10
10.092244  2.607031e+10
10.104642  2.632613e+10
10.117040  2.658374e+10
10.129439  2.684357e+10
10.141837  2.710524e+10
10.154235  2.736895e+10
10.166634  2.763470e+10
10.179032  2.790248e+10
10.191430  2.817236e+10
10.203829  2.844429e+10
10.216227  2.871822e+10
10.228625  2.899420e+10
10.241024  2.927242e+10
10.253422  2.955267e+10
10.265820  2.983498e+10
10.278219  3.011952e+10
10.290617  3.040612e+10
10.303015  3.069492e+10
10.315414  3.098585e+10
10.327812  3.127897e+10
10.340210  3.157424e+10
10.352609  3.187173e+10
10.365007  3.217141e+10
10.377405  3.247335e+10
10.389804  3.277743e+10
10.402202  3.308393e+10
10.414600  3.339259e+10
10.426999  3.370345e+10
10.439397  3.401653e+10
10.451795  3.433207e+10
10.464194  3.464987e+10
10.476592  3.496972e+10
10.488990  3.529232e+10
10.501389  3.561687e+10
10.513787  3.594399e+10
10.526185  3.627348e+10
10.538584  3.660532e+10
10.550982  3.693941e+10
10.563380  3.727597e+10
10.575779  3.761491e+10
10.588177  3.795635e+10
10.600575  3.830012e+10
10.612974  3.864646e+10
10.625372  3.899511e+10
10.637770  3.934632e+10
10.650169  3.969999e+10
10.662567  4.005616e+10
10.674965  4.041476e+10
10.687364  4.077592e+10
10.699762  4.113961e+10
10.712160  4.150587e+10
10.724559  4.187463e+10
10.736957  4.224593e+10
10.749355  4.261988e+10
10.761754  4.299629e+10
10.774152  4.337536e+10
10.786550  4.375695e+10
10.798949  4.414138e+10
10.811347  4.452830e+10
10.823745  4.491788e+10
10.836144  4.531036e+10
10.848542  4.570533e+10
10.860940  4.610302e+10
10.873339  4.650322e+10
10.885737  4.690648e+10
10.898135  4.731200e+10
10.910534  4.772050e+10
10.922932  4.813165e+10
10.935330  4.854575e+10
10.947729  4.896245e+10
10.960127  4.938214e+10
10.972525  4.980445e+10
10.984924  5.022984e+10
10.997322  5.065777e+10
11.009720  5.108852e+10
11.022119  5.152230e+10
11.034517  5.195886e+10
11.046915  5.239822e+10
11.059314  5.284067e+10
11.071712  5.328584e+10
11.084110  5.373395e+10
11.096509  5.418496e+10
11.108907  5.463909e+10
11.121305  5.509606e+10
11.133704  5.555598e+10
11.146102  5.601891e+10
11.158500  5.648484e+10
11.170899  5.695353e+10
11.183297  5.742554e+10
11.195695  5.790062e+10
11.208094  5.837867e+10
11.220492  5.885983e+10
11.232890  5.934383e+10
11.245289  5.983114e+10
11.257687  6.032144e+10
11.270085  6.081487e+10
11.282484  6.131153e+10
11.294882  6.181134e+10
11.307280  6.231413e+10
11.319679  6.282023e+10
11.332077  6.332916e+10
11.344475  6.384187e+10
11.356874  6.435769e+10
11.369272  6.487655e+10
11.381670  6.539864e+10
11.394069  6.592352e+10
11.406467  6.645218e+10
11.418865  6.698415e+10
11.431264  6.751935e+10
11.443662  6.805787e+10
11.456060  6.859953e+10
11.468459  6.914474e+10
11.480857  6.969304e+10
11.493255  7.024480e+10
11.505654  7.080000e+10
11.518052  7.135860e+10
11.530450  7.192052e+10
11.542849  7.248577e+10
11.555247  7.305464e+10
11.567645  7.362662e+10
11.580044  7.420213e+10
11.592442  7.478176e+10
11.604840  7.536398e+10
11.617239  7.595041e+10
11.629637  7.653986e+10
11.642035  7.713321e+10
11.654434  7.773010e+10
11.666832  7.833014e+10
11.679230  7.893379e+10
11.691629  7.954140e+10
11.704027  8.015222e+10
11.716425  8.076677e+10
11.728824  8.138502e+10
11.741222  8.200691e+10
11.753620  8.263276e+10
11.766019  8.326125e+10
11.778417  8.389408e+10
11.790815  8.453051e+10
11.803214  8.517102e+10
11.815612  8.581536e+10
11.828010  8.646242e+10
11.840409  8.711403e+10
11.852807  8.776956e+10
11.865205  8.842798e+10
11.877604  8.909098e+10
11.890002  8.975757e+10
11.902400  9.042796e+10
11.914799  9.110193e+10
11.927197  9.177999e+10
11.939595  9.246209e+10
11.951994  9.314795e+10
11.964392  9.383771e+10
11.976790  9.453127e+10
11.989189  9.522872e+10
12.001587  9.592975e+10
12.013985  9.663520e+10
12.026384  9.734516e+10
12.038782  9.805813e+10
12.051180  9.877545e+10
12.063579  9.949716e+10
12.075977  1.002225e+11
12.088375  1.009517e+11
12.100774  1.016854e+11
12.113172  1.024228e+11
12.125570  1.031646e+11
12.137969  1.039099e+11
12.150367  1.046600e+11
12.162765  1.054137e+11
12.175164  1.061717e+11
12.187562  1.069340e+11
12.199960  1.077004e+11
12.212359  1.084713e+11
12.224757  1.092461e+11
12.237155  1.100244e+11
12.249554  1.108082e+11
12.261952  1.115953e+11
